time (s)	magX	magY	magZ
3872.040910	-169.735840	-73.864403	923.793091
3872.044226	-174.762115	-70.649910	920.344788
3872.047545	-180.431305	-68.136765	917.890137
3872.050810	-184.054932	-63.753357	914.032715
3872.054143	-189.198120	-61.064873	910.993530
3872.057465	-193.990662	-57.908821	907.194580
3872.060381	-198.666290	-54.402100	903.863159
3872.063718	-203.108124	-51.187607	900.824036
3872.067044	-207.783752	-47.856224	897.317383
3872.070398	-211.816467	-44.817066	893.869080
3872.073735	-215.498535	-41.193451	889.719421
3872.077105	-219.765045	-38.037407	886.680237
3872.080380	-224.089996	-34.822910	882.705994
3872.083288	-228.239624	-31.666861	879.374634
3872.086621	-232.097046	-28.218586	874.757446
3872.089952	-236.071320	-25.296318	869.497314
3872.093289	-239.694916	-22.140268	866.575073
3872.096622	-243.552307	-19.334892	861.373474
3872.099947	-246.533020	-15.594389	857.925171
3872.103286	-250.156647	-12.146112	852.840454
3872.106615	-254.189392	-9.516072	849.099976
3872.109952	-257.579193	-6.944476	844.658020
3872.113285	-261.553497	-4.139099	839.573303
3872.116619	-264.709534	-1.216831	835.832825
3872.119967	-268.274689	0.945646	830.689636
3872.123288	-271.664520	3.809469	826.130920
3872.126612	-274.995911	6.264174	821.689087
3872.129947	-278.677979	8.075979	817.305603
3872.133284	-282.184692	10.706020	812.454651
3872.136611	-284.697845	13.336060	807.895996
3872.139944	-287.795441	15.615431	802.577454
3872.143309	-291.068390	17.777910	798.252441
3872.146621	-293.464630	20.057276	794.102783
3872.149944	-296.386902	22.278200	789.427246
3872.153277	-299.192291	24.440680	784.400940
3872.156609	-302.114563	26.895384	778.848572
3872.159944	-304.569275	29.350088	774.757446
3872.163304	-307.257751	31.687902	770.724731
3872.166608	-309.361786	33.908829	764.237244
3872.169945	-311.991821	35.895966	760.730530
3872.173284	-313.803619	37.941559	755.996460
3872.176612	-316.083008	40.746933	750.911682
3872.179939	-318.128601	43.669197	745.710083
3872.183280	-320.057281	45.597893	742.144897
3872.186606	-322.395081	48.461716	736.534180
3872.189946	-323.797791	50.624199	732.559875
3872.194153	-326.720062	55.241371	723.091736
3872.197588	-328.005859	57.871422	718.883667
3872.200868	-329.642334	59.975449	713.565125
3872.204134	-330.752777	61.962593	710.876648
3872.207505	-332.097046	65.001755	705.908813
3872.210786	-333.558167	66.345993	701.583862
3872.214155	-334.317963	68.683807	697.901733
3872.217031	-335.194641	70.846291	693.752197
3872.220358	-336.421967	73.300995	690.011658
3872.223710	-337.181763	75.112801	685.978943
3872.227063	-338.233795	77.392166	681.887756
3872.230442	-339.519592	79.145523	678.497925
3872.233705	-340.104034	80.898888	673.822327
3872.236603	-341.506714	82.769135	670.315613
3872.239941	-342.441864	84.639389	665.523071
3872.243269	-342.792511	85.749855	662.308533
3872.246608	-343.669220	87.795441	657.925171
3872.249971	-344.954987	89.548798	654.243103
3872.253265	-345.656342	90.717705	650.561035
3872.256604	-345.948578	92.120399	645.651611
3872.259932	-346.357697	93.756874	642.729370
3872.263267	-347.585052	94.575096	638.170593
3872.266599	-348.111053	96.620682	634.722351
3872.269931	-348.520172	97.555809	629.462280
3872.273267	-349.513763	99.133842	627.358215
3872.276602	-349.747528	99.776741	623.267090
3872.279933	-350.273529	101.120979	619.585022
3872.283262	-350.624207	102.757446	616.604309
3872.286599	-350.565735	103.751022	612.863831
3872.289928	-352.260681	104.510811	609.357056
3872.293337	-351.910004	106.322617	604.973694
3872.296599	-352.552887	107.374634	603.512512
3872.299940	-353.195801	109.011108	599.538269
3872.303265	-353.195801	110.355347	596.265320
3872.306594	-353.195801	111.407372	593.167725
3872.309925	-353.488037	112.517830	589.894775
3872.313259	-353.721802	113.277626	585.803589
3872.316595	-353.312683	114.680305	584.108704
3872.319928	-353.195801	116.258324	580.894165
3872.323267	-353.663361	117.193459	578.497925
3872.326599	-353.721802	118.829918	575.692566
3872.329927	-354.189392	119.589714	573.763855
3872.333261	-353.604919	121.752190	571.133789
3872.336622	-353.604919	122.570427	568.328430
3872.339926	-352.786682	123.856224	565.698364
3872.343264	-352.903564	125.258919	563.302124
3872.346594	-352.026886	126.953819	561.081238
3872.350855	-352.377563	128.648743	557.106934
3872.354185	-352.552887	130.051437	555.411987
3872.357450	-351.910004	131.454117	553.366394
3872.360762	-351.325531	132.447693	551.028625
3872.364107	-351.500885	133.499725	549.158386
3872.367471	-351.384003	134.551727	547.171204
3872.370789	-350.974884	135.837524	545.125610
3872.373706	-350.448883	137.240219	543.547607
3872.377047	-350.799530	137.064880	541.209778
3872.380412	-350.390411	138.233795	540.391602
3872.383737	-349.922852	139.344254	538.462891
3872.387030	-348.870819	140.513153	536.125000
3872.390352	-349.338379	141.331390	534.897705
3872.393255	-349.338379	141.448288	533.144348
3872.396587	-349.279968	142.500290	532.033875
3872.399921	-349.104614	143.201645	530.572754
3872.403252	-348.929291	143.786102	529.111633
3872.406589	-349.396851	144.019882	527.299805
3872.409918	-348.578613	144.955002	525.663330
3872.413251	-348.578613	146.182358	524.494385
3872.416588	-348.169495	146.416138	523.150208
3872.419920	-347.935699	146.708374	521.864380
3872.423275	-347.935699	147.292816	521.104614
3872.426581	-347.000580	147.994156	519.585022
3872.429922	-347.117493	148.929291	519.292786
3872.433246	-346.649902	149.221512	518.240784
3872.436582	-347.292816	150.624207	517.364075
3872.439917	-346.065460	151.500885	516.136719
3872.443248	-346.357697	151.909988	515.435425
3872.446591	-345.656342	152.786682	514.734070
3872.449913	-345.539459	153.488022	514.441833
3872.453252	-344.838135	154.364700	513.506714
3872.456581	-344.721222	155.475159	514.091125
3872.459911	-344.195190	156.059616	513.448242
3872.463243	-343.727631	157.228531	513.331360
3872.466611	-343.610779	158.631226	512.863831
3872.469915	-343.669220	159.157227	512.746887
3872.473253	-342.909424	160.092361	512.746887
3872.476581	-341.857391	161.202820	512.396240
3872.479913	-342.149628	161.845703	511.811798
3872.483243	-341.272949	163.482178	512.922241
3872.486583	-340.571594	163.832855	512.805359
3872.489914	-339.461151	164.651077	513.915833
3872.493247	-339.870270	166.170670	512.980713
3872.496575	-338.701355	166.813568	513.506714
3872.499909	-338.876678	168.391586	514.383362
3872.503243	-338.292236	168.450027	514.967834
3872.507503	-336.714203	170.028061	516.253601
3872.510842	-336.772675	171.021622	517.130310
3872.514091	-336.129761	171.547638	517.247192
3872.517434	-335.779083	172.482758	517.422546
3872.520756	-334.025726	173.476334	518.416138
3872.524113	-334.142609	174.119232	519.351257
3872.527445	-333.382812	174.703690	519.994080
3872.530364	-333.265930	175.112808	520.812378
3872.533689	-333.149048	176.223267	521.396790
3872.537025	-333.032166	176.807724	522.390381
3872.540378	-332.506134	177.509064	523.676208
3872.543663	-331.804810	178.268845	524.260681
3872.546991	-331.161896	178.268845	525.312622
3872.550340	-330.694336	178.794861	526.949097
3872.553259	-330.460541	179.379318	527.124451
3872.556571	-330.518982	179.613098	529.462280
3872.559903	-330.285217	180.548233	531.098755
3872.563238	-329.700775	180.548233	532.033875
3872.566570	-329.466980	181.424911	533.378113
3872.569902	-328.414978	182.476913	534.196350
3872.573239	-328.707214	182.360031	536.066589
3872.576566	-327.479858	183.119812	537.527771
3872.579905	-326.603149	183.879608	539.105713
3872.583247	-326.135590	184.639389	540.391602
3872.586564	-325.784912	185.457626	543.080017
3872.589897	-324.732910	186.509644	544.774963
3872.593246	-324.206909	186.860306	546.294556
3872.596592	-322.862640	188.263000	548.866089
3872.599902	-322.453552	188.321457	550.853271
3872.603231	-321.459961	189.782578	553.132629
3872.606572	-320.524841	190.250153	555.411987
3872.609906	-319.472809	190.717712	557.340698
3872.613266	-318.713043	192.237289	559.736938
3872.616566	-317.602570	192.295731	561.665649
3872.619903	-316.258331	193.113983	564.120361
3872.623232	-315.498535	194.282883	567.334900
3872.626573	-314.212769	194.808899	569.497314
3872.629898	-313.511414	195.627136	572.302734
3872.633233	-312.167145	197.029816	574.815857
3872.636569	-311.232025	198.081833	577.796570
3872.639893	-309.478668	198.549408	579.783691
3872.643231	-308.952667	199.133835	583.582703
3872.646563	-307.725311	199.542969	586.446533
3872.649894	-306.556396	200.302750	589.193420
3872.653230	-305.738159	200.828751	592.057251
3872.656579	-304.043243	201.705444	594.570374
3872.659894	-303.166595	202.056107	597.083557
3872.663245	-301.354767	203.108139	600.414917
3872.667851	-299.309174	203.634125	606.434814
3872.670745	-297.848053	203.867920	609.240173
3872.674069	-296.854492	204.452377	612.746887
3872.677428	-295.744019	204.510818	616.195190
3872.680769	-294.633575	205.153717	619.234375
3872.684201	-293.347748	205.855072	622.799500
3872.687500	-292.471069	205.212158	626.890686
3872.690324	-290.483948	205.504379	629.812927
3872.693687	-288.555237	205.621277	633.027466
3872.696980	-287.503235	205.796616	637.819946
3872.700328	-285.983643	205.738174	639.865540
3872.703651	-284.580963	205.738174	644.015137
3872.706979	-282.886047	206.381073	646.878967
3872.709886	-281.366455	206.088837	651.145508
3872.713218	-279.496185	206.497971	654.944458
3872.716560	-277.567505	206.556396	658.451172
3872.719891	-275.814148	207.082397	662.483948
3872.723225	-273.651672	207.140869	666.867310
3872.726552	-271.722961	207.608429	670.900024
3872.729886	-269.385162	207.023972	674.874268
3872.733290	-266.872009	207.666870	678.264160
3872.736584	-265.001770	207.725327	682.998230
3872.739887	-262.021057	208.485092	686.621826
3872.743223	-259.624786	208.835785	690.888367
3872.746551	-256.644073	209.069550	696.440613
3872.749884	-254.715363	209.069550	699.479797
3872.753224	-251.734680	209.128006	703.337158
3872.756556	-248.870819	209.654007	708.188171
3872.759888	-246.123901	209.654007	711.694885
3872.763221	-243.727631	209.478683	716.195190
3872.766573	-240.279358	209.361786	720.461670
3872.769889	-237.707794	209.595581	724.845093
3872.773220	-234.493286	209.069550	729.403809
3872.776552	-230.928131	209.069550	733.085937
3872.779889	-228.064301	208.777313	737.586182
3872.783213	-224.908234	208.835785	742.320251
3872.786549	-222.219757	208.952652	746.236084
3872.789887	-218.420807	208.485092	750.502625
3872.793214	-215.556976	207.433090	755.061340
3872.796550	-211.933380	207.842194	759.853882
3872.799902	-208.075989	207.023972	764.529480
3872.803215	-205.036835	206.848633	768.328430
3872.806545	-201.939209	206.030411	772.828735
3872.809911	-198.432495	204.393921	777.328979
3872.813218	-194.516663	203.692596	781.537109
3872.816544	-190.893066	202.699005	785.569824
3872.819879	-187.561646	201.763885	790.303894
3872.824510	-179.846893	199.952087	798.077148
3872.827420	-176.690826	198.432510	802.051392
3872.830748	-172.482758	197.438919	806.610168
3872.834138	-169.735840	196.153122	812.571533
3872.837464	-165.410889	195.510239	815.552246
3872.840831	-160.910583	194.575104	818.240784
3872.844068	-157.053192	192.938644	822.390381
3872.846966	-152.903564	192.003525	826.656860
3872.850299	-148.461731	190.191711	830.572754
3872.853660	-144.078308	188.555237	834.897644
3872.856970	-139.578033	187.327881	838.462891
3872.860296	-134.668610	186.100540	841.794250
3872.863667	-129.583862	184.697861	846.528259
3872.866992	-124.557564	183.879608	850.794800
3872.869872	-119.881935	182.710709	854.009277
3872.873202	-115.030983	180.431335	858.392761
3872.876603	-109.011101	178.970200	861.256531
3872.879876	-103.517250	177.684402	866.049072
3872.883241	-98.432487	175.989487	868.445312
3872.886540	-92.587959	175.171249	871.893616
3872.889873	-87.327888	172.658096	874.698975
3872.893203	-82.243134	171.372314	878.556396
3872.896560	-76.106369	169.969620	881.303345
3872.899870	-70.144951	167.982468	884.751526
3872.903200	-64.767967	166.521332	887.907654
3872.906536	-58.864998	164.651077	890.946777
3872.909868	-53.312683	162.780838	893.576843
3872.913203	-47.818817	160.501465	896.206909
3872.916538	-41.857399	157.988327	898.427795
3872.919868	-36.246635	156.234955	901.759155
3872.923199	-29.992981	154.306259	903.570984
3872.926548	-24.849792	152.143784	906.493225
3872.929872	-18.245468	149.163071	908.188171
3872.933199	-13.102280	146.825256	910.409119
3872.936536	-7.374634	144.662781	912.337830
3872.939867	-1.237873	141.506729	915.143127
3872.943235	4.139099	138.701355	916.428955
3872.946537	9.691410	136.597305	918.942139
3872.949872	15.652834	134.317947	919.818848
3872.953195	21.848043	131.454117	922.390381
3872.956534	27.108124	127.655159	924.319092
3872.959863	33.186440	125.551140	925.546387
3872.963226	38.154297	122.336647	926.715332
3872.966527	44.992401	119.355934	928.644043
3872.969875	50.544712	115.849220	929.170044
3872.973199	56.272354	113.452950	929.696045
3872.976527	62.467564	110.180016	930.514282
3872.979862	67.727646	107.140854	931.390991
3872.984540	79.416718	100.478081	932.442993
3872.987473	85.495033	97.672707	933.962585
3872.990804	91.514908	94.633545	933.787170
3872.994129	97.826996	91.477493	932.676758
3872.997372	103.788422	88.613670	933.611938
3873.000734	109.516075	86.392754	933.144348
3873.004046	115.302162	83.119812	932.910583
3873.006986	121.555817	80.255989	932.910583
3873.010287	127.283463	77.099945	930.981873
3873.013616	133.303345	74.236115	930.455811
3873.016975	139.498535	71.956749	929.929871
3873.020305	145.985977	69.092926	928.585571
3873.023664	151.304504	65.936882	926.949158
3873.026958	157.382812	63.248390	926.189392
3873.029858	163.344238	60.852135	924.319092
3873.033194	168.954987	57.696083	922.273499
3873.036521	174.390411	54.656921	920.637085
3873.039856	180.293396	52.319107	919.059021
3873.043189	185.728821	48.695496	916.779663
3873.046531	191.573334	46.123901	914.617187
3873.049894	197.067200	43.435417	912.513123
3873.053186	202.502625	40.337814	910.876709
3873.056523	207.061371	37.064873	907.895996
3873.059858	213.022797	33.616600	905.967285
3873.063186	217.990662	31.512564	902.635925
3873.066519	223.309174	28.531855	900.940918
3873.069851	227.517242	25.083578	899.129150
3873.073187	232.309753	22.745764	895.563904
3873.076524	236.985382	19.297487	893.284668
3873.079852	241.193451	16.199884	890.771423
3873.083188	245.518402	13.336060	887.673889
3873.086514	249.901825	10.063122	884.751526
3873.089855	255.045013	7.082407	881.478638
3873.093234	258.668610	3.984806	878.673279
3873.096519	262.701355	0.536530	874.231384
3873.099855	266.675629	-1.859732	871.659790
3873.103179	270.416138	-5.541788	868.912903
3873.106517	274.156647	-8.639392	866.049072
3873.109847	277.780243	-11.327878	862.016357
3873.113181	281.812988	-14.133255	858.217346
3873.116515	285.378143	-18.282875	854.126221
3873.119853	289.586212	-20.971361	850.911743
3873.123184	292.450012	-24.185856	847.872559
3873.126514	296.073639	-26.465225	843.898254
3873.129850	300.106354	-29.329046	839.690247
3873.133183	303.379303	-32.309761	835.482178
3873.136514	306.827576	-34.413795	831.332520
3873.139850	309.399170	-36.576271	826.890686
3873.144113	316.237274	-41.719460	819.234314
3873.147438	319.276459	-44.291058	814.032715
3873.150773	322.198700	-46.219753	809.883057
3873.154027	325.939209	-48.616013	805.149048
3873.157365	328.744598	-51.129166	800.940918
3873.160707	331.023956	-53.233200	795.797791
3873.164048	334.413788	-54.811218	791.005249
3873.166972	336.693176	-56.447693	786.446533
3873.170265	339.907654	-59.194626	782.413757
3873.173624	342.654572	-61.064873	778.381042
3873.176963	345.226196	-63.168907	773.354736
3873.180310	347.505554	-64.688484	768.328430
3873.183597	349.258881	-66.850960	763.477478
3873.186508	352.181152	-68.954994	759.152527
3873.189842	353.642303	-70.825249	755.178223
3873.193172	355.921661	-72.870834	750.444153
3873.196503	357.908813	-74.507309	745.417847
3873.199841	359.369934	-76.260666	741.911133
3873.203175	361.298645	-78.715370	737.001770
3873.206506	363.636475	-80.644066	732.618347
3873.209866	364.337799	-82.806549	728.293335
3873.213175	366.441833	-84.969025	724.786682
3873.216506	367.201630	-87.248390	719.877258
3873.219838	368.370514	-88.592636	715.084717
3873.223173	370.708344	-90.755119	711.168884
3873.226506	371.468140	-92.742256	706.551697
3873.229840	371.994141	-94.261841	703.278748
3873.233174	372.987732	-96.190529	698.486206
3873.236498	373.221497	-98.119232	695.096375
3873.239838	375.091766	-100.164818	691.297485
3873.243166	375.442413	-101.976624	686.972534
3873.246509	377.020447	-103.613091	683.699524
3873.249838	377.312683	-105.834015	679.783691
3873.253207	378.130920	-107.178261	675.575684
3873.256498	379.066040	-108.464058	671.250732
3873.259836	380.118042	-110.334305	667.627075
3873.263168	380.118042	-112.263008	663.828125
3873.266517	380.644043	-113.431915	659.795410
3873.269836	381.579193	-114.308594	655.762634
3873.273169	382.338959	-115.769730	650.911682
3873.276500	383.157196	-117.289307	647.463440
3873.279836	383.390991	-118.282875	643.080017
3873.283160	383.975464	-120.153122	639.105713
3873.286497	384.618347	-121.029816	636.241943
3873.289831	384.559875	-122.257156	632.209167
3873.293165	384.910583	-123.250732	628.702515
3873.296499	385.670380	-124.536537	624.845093
3873.300781	386.430145	-126.465218	617.130310
3873.304105	386.780823	-127.517242	613.331360
3873.307351	387.189941	-128.101700	609.824646
3873.310682	387.657501	-129.153702	606.259460
3873.314018	387.014587	-129.855057	602.109863
3873.317374	388.066620	-130.965515	599.129150
3873.320708	387.306824	-131.725296	596.148437
3873.324034	387.657501	-132.952652	593.343079
3873.327012	387.891296	-133.420227	590.829895
3873.330281	388.709503	-134.472229	586.972534
3873.333609	388.300415	-135.524246	583.465820
3873.336915	388.417297	-137.511398	580.660400
3873.340286	387.540619	-137.862061	577.796570
3873.343574	387.774384	-138.914093	575.517212
3873.346488	387.832855	-139.556976	572.770325
3873.349819	387.423737	-140.550552	570.315613
3873.353166	387.657501	-141.544113	567.977783
3873.356491	386.839264	-142.946808	564.880188
3873.359821	386.956177	-143.998825	562.951477
3873.363155	386.313263	-145.226181	559.795410
3873.366494	386.137939	-146.687317	559.152527
3873.369826	386.254791	-147.622437	556.990051
3873.373156	385.202820	-148.615997	554.067749
3873.376491	385.378143	-149.317352	552.139099
3873.379824	384.618347	-150.427811	550.385681
3873.383174	384.092316	-151.538269	548.983032
3873.386487	384.326111	-152.239624	547.755676
3873.389825	384.150787	-152.999420	544.658081
3873.393155	383.800110	-154.460556	543.080017
3873.396516	383.507904	-155.395676	540.391602
3873.399824	382.981873	-155.863235	538.813538
3873.403156	382.222076	-156.681473	537.410828
3873.406492	381.812958	-157.908813	536.066589
3873.409814	381.929871	-158.785492	534.137878
3873.413151	381.462311	-158.960831	532.384521
3873.416486	381.403839	-159.779068	531.332520
3873.419820	380.527191	-160.889526	529.871399
3873.423153	380.644043	-161.006424	528.760925
3873.426480	380.059631	-161.590881	525.663330
3873.429823	380.118042	-161.766205	524.202209
3873.433151	379.475159	-162.584442	523.442383
3873.436489	379.124481	-163.110458	522.857971
3873.439822	379.066040	-164.162476	521.572144
3873.443149	378.540039	-164.630035	520.111023
3873.446478	379.066040	-165.506714	519.000549
3873.449816	378.773804	-166.266495	517.773193
3873.453152	378.247803	-166.091171	517.013428
3873.457808	377.838684	-167.435410	515.552246
3873.460691	377.663330	-167.727631	515.844543
3873.463991	376.494446	-168.721207	514.032715
3873.467348	376.611328	-168.838089	513.974304
