time (s)	magX	magY	magZ
4840.171594	-258.270020	-172.238464	179.953247
4840.174928	-260.081818	-172.998245	183.226181
4840.178295	-261.484497	-173.933380	186.031555
4840.181592	-262.302765	-175.277618	188.895386
4840.184933	-263.646973	-177.089417	192.635880
4840.188258	-265.341888	-177.673874	195.382828
4840.191594	-266.510834	-178.550552	198.889542
4840.194926	-268.497955	-180.479248	201.811813
4840.198255	-269.900635	-181.940384	205.318527
4840.201591	-272.004669	-183.635300	210.286377
4840.204928	-272.822906	-184.745758	214.436005
4840.208259	-275.160706	-185.856216	218.118042
4840.211589	-276.154297	-187.434250	221.917007
4840.214920	-277.673859	-187.960251	226.008179
4840.218252	-279.193451	-189.596725	230.859131
4840.221621	-281.472839	-191.642319	234.248978
4840.226214	-283.927551	-194.330795	244.126251
4840.229555	-285.447083	-194.856812	249.561661
4840.232474	-287.083588	-196.142609	253.535934
4840.235789	-288.369385	-197.837524	258.971344
4840.239224	-290.473419	-199.298660	263.413208
4840.242567	-291.817627	-200.467560	268.848633
4840.245831	-293.103455	-202.220917	273.933350
4840.249098	-294.681488	-203.682068	278.959686
4840.252436	-296.610168	-205.084747	283.810638
4840.255346	-297.253052	-206.662781	289.479828
4840.258686	-299.707764	-208.240799	295.675049
4840.262013	-299.883118	-209.234360	300.935120
4840.265402	-301.168915	-211.104614	306.136749
4840.268698	-302.922272	-211.922867	312.273529
4840.272033	-303.798950	-213.383987	317.767395
4840.274963	-304.850952	-214.903564	323.845703
4840.278255	-306.487427	-216.364700	330.040894
4840.281583	-307.890137	-217.825836	337.054352
4840.284919	-308.065460	-219.111633	343.191132
4840.288248	-309.643494	-220.397430	349.327881
4840.291578	-310.520172	-221.858566	355.639984
4840.294918	-311.630615	-223.144363	362.828766
4840.298247	-312.448853	-223.962585	369.959106
4840.301580	-313.150208	-224.839279	378.258331
4840.304911	-314.260681	-226.008179	385.680878
4840.308261	-314.669769	-227.118637	393.454132
4840.311577	-315.488037	-227.878433	401.052002
4840.314918	-315.780243	-228.579788	409.409729
4840.318244	-316.481598	-228.872009	417.241394
4840.321578	-316.598480	-229.807144	426.183502
4840.324910	-317.007599	-230.333130	435.008759
4840.328250	-317.241394	-230.976028	444.067810
4840.331580	-318.001160	-230.917603	453.769745
4840.334910	-317.182922	-230.976028	463.354767
4840.338291	-317.066040	-231.911163	472.998230
4840.341572	-316.773834	-231.385162	483.985992
4840.344907	-316.189362	-231.151367	493.804779
4840.348245	-315.371124	-231.443604	504.734100
4840.351582	-314.786682	-231.385162	514.377563
4840.354906	-313.968445	-230.683807	525.306824
4840.358243	-312.156616	-230.391571	535.300964
4840.361572	-311.046173	-229.339569	545.704285
4840.364906	-309.468140	-228.813553	556.575134
4840.368268	-307.071869	-227.586197	566.452332
4840.371578	-304.850952	-226.475739	576.914062
4840.374908	-302.746948	-225.715942	587.258911
4840.378239	-299.941559	-224.371719	597.779053
4840.381581	-297.253052	-222.033905	608.123901
4840.384904	-294.330811	-221.098785	618.585632
4840.388235	-291.291656	-219.462296	629.164246
4840.392493	-284.278198	-215.663361	648.977173
4840.395832	-280.771484	-213.091751	658.737549
4840.399089	-276.621857	-211.104614	669.491516
4840.402422	-272.530670	-209.175919	679.251892
4840.405754	-268.205750	-206.428986	688.895386
4840.409109	-263.179413	-203.331375	697.603760
4840.412480	-257.860901	-200.526001	707.130310
4840.415358	-253.009933	-197.253067	715.897156
4840.418679	-247.749847	-194.155472	725.599060
4840.422018	-242.431335	-190.181183	733.956787
4840.425345	-237.288147	-186.732895	743.717163
4840.428660	-230.508469	-182.641739	751.548828
4840.431991	-224.839279	-177.849213	759.789612
4840.435327	-218.001175	-173.582703	767.913513
4840.438237	-210.987732	-169.491531	777.557007
4840.441563	-203.915833	-164.406769	785.213318
4840.444897	-196.201050	-159.263580	792.577454
4840.448234	-188.895386	-154.120392	800.116943
4840.451563	-180.829926	-148.217422	807.013428
4840.454908	-172.822922	-142.665115	814.611328
4840.458225	-164.465225	-136.586792	819.754517
4840.461570	-156.224426	-129.982468	825.657471
4840.464897	-146.990067	-123.495033	832.495605
4840.468231	-137.405029	-115.897133	836.820618
4840.471564	-128.112213	-109.701935	842.022217
4840.474943	-117.942726	-102.396263	846.814697
4840.478232	-108.474579	-94.447693	850.555237
4840.481558	-98.246643	-87.492691	854.003540
4840.484895	-88.544708	-79.777908	856.107544
4840.488231	-77.264755	-71.654007	859.555786
4840.491564	-67.738167	-64.173004	861.309143
4840.494899	-56.691994	-55.698425	863.296326
4840.498241	-46.230274	-47.925190	863.062561
4840.501563	-35.768555	-40.151958	864.465210
4840.504893	-25.540621	-32.086502	863.471680
4840.508229	-14.786674	-23.670368	863.354797
4840.511559	-3.857393	-15.838690	862.244324
4840.514891	6.545880	-8.357686	861.075378
4840.518222	17.708942	-0.233781	859.029785
4840.521557	26.826418	8.240795	855.932251
4840.524889	37.054356	15.663354	853.477478
4840.528226	47.048508	23.085915	849.737000
4840.531556	57.042664	30.450027	845.704285
4840.534888	66.335472	37.638809	841.963745
4840.538225	75.511398	44.593803	837.112793
4840.541577	84.687317	51.607246	832.261841
4840.544888	94.681473	58.094681	826.768005
4840.548222	103.156052	65.517242	822.092346
4840.551556	112.098190	71.829338	815.429565
4840.556194	128.930450	84.745766	802.863770
4840.559515	137.229691	90.473404	793.629456
4840.562419	144.593796	97.194626	788.252502
4840.565821	152.016373	102.746925	780.245422
4840.569138	160.081833	108.942139	772.180054
4840.572504	167.329056	114.436005	763.646973
4840.575738	173.991821	120.397423	755.464661
4840.579070	181.063705	126.592636	746.697876
4840.581979	188.369370	131.618942	737.989502
4840.585330	193.746353	137.521927	728.579773
4840.588644	200.642899	142.080658	719.170105
4840.591976	206.312103	147.516068	709.701904
4840.595326	212.273529	152.074814	700.467590
4840.598677	218.176514	157.276459	690.473389
4840.602019	223.085907	162.010513	679.894775
4840.604899	227.761551	166.160141	669.725342
4840.608217	232.554047	169.842194	660.140259
4840.611551	237.112808	174.868500	648.451172
4840.614887	241.203979	178.667450	637.814148
4840.618221	245.236710	182.817062	627.352417
4840.621583	249.210983	186.674469	615.546448
4840.624883	252.542374	189.772064	605.435425
4840.628227	255.756882	192.928116	594.272400
4840.631552	258.562256	195.967270	583.050842
4840.634879	261.718292	198.655762	571.653992
4840.638208	263.588562	201.227356	560.841614
4840.641546	265.341888	203.682068	550.847412
4840.644881	267.212158	205.844543	539.333740
4840.648209	270.017517	207.714798	528.813538
4840.651551	271.069550	209.292816	518.527161
4840.654878	271.946228	211.338394	508.708344
4840.658215	273.173584	212.390427	498.831085
4840.661550	273.816498	213.559311	489.187622
4840.664897	274.400940	214.962006	478.901245
4840.668210	275.803619	216.014023	468.322601
4840.671599	275.978973	216.247803	459.029816
4840.674886	276.329651	216.890717	450.555237
4840.678210	276.388062	217.416718	441.145508
4840.681545	275.336060	217.708939	433.313843
4840.684876	275.862061	217.942719	424.722382
4840.688214	275.160706	218.293411	416.014008
4840.691542	274.517822	218.644073	407.831665
4840.694873	273.874939	218.176514	399.123322
4840.698207	274.400940	218.351837	391.583862
4840.701543	273.465790	218.819397	383.927551
4840.704877	271.770874	217.884277	376.271179
4840.708230	271.595551	218.001175	368.030396
4840.711546	270.017517	217.182922	360.490936
4840.716222	267.971954	216.306259	345.295135
4840.719145	266.452362	215.488022	338.573944
4840.722477	265.575684	215.429565	330.917603
4840.725804	263.705444	214.611343	324.196381
4840.729052	262.536530	214.319107	317.299805
4840.732402	261.367645	213.325546	310.870850
4840.735738	259.848053	212.741089	304.208069
4840.739076	258.562256	212.390427	297.253052
4840.741979	256.750427	210.987732	290.824066
4840.745317	254.880188	209.701920	284.102875
4840.748662	253.068375	208.708359	278.024567
4840.752030	251.198120	208.533020	270.718872
4840.755295	249.094101	207.539444	265.283478
4840.758632	247.106964	206.136749	259.614258
4840.761530	245.412033	204.734070	253.594391
4840.764870	243.834015	204.208069	248.392746
4840.768196	241.554642	203.272934	242.372864
4840.771537	239.567490	201.519592	236.645248
4840.774865	237.346573	200.584457	232.320282
4840.778203	235.593231	199.649323	227.352432
4840.781532	233.547638	198.363525	222.092346
4840.784871	231.794266	197.603745	217.299820
4840.788195	229.924011	196.142609	212.974854
4840.791531	227.586197	195.032150	207.831665
4840.794887	225.949738	193.337219	204.208069
4840.798195	224.313263	192.694336	199.006424
4840.801533	222.150772	191.583878	196.025711
4840.804862	220.572754	189.947403	191.583878
4840.808213	219.286972	188.953827	188.194031
4840.811531	216.598480	187.726471	184.336655
4840.814863	215.020462	186.791351	181.998840
4840.818192	213.325546	185.680893	178.258331
4840.821526	211.805969	184.745758	175.628296
4840.824861	210.111053	183.985977	172.180008
4840.828194	208.357697	182.758621	169.199295
4840.831530	206.779663	180.537704	167.329056
4840.834862	204.734070	180.362350	163.413208
4840.838229	203.331375	178.550552	161.133835
4840.841529	202.104050	178.082993	158.796021
4840.844865	199.357101	176.972534	156.107544
4840.848197	199.064880	175.862076	153.302155
4840.851529	197.895966	174.459381	150.905914
4840.854864	196.084167	174.167160	148.451202
4840.858187	194.798355	172.998245	146.347168
4840.861525	192.752777	172.355347	143.600235
4840.864858	191.291641	171.186432	141.729980
4840.868195	190.005844	170.894211	140.035065
4840.871520	188.720047	169.491531	137.814148
4840.876202	185.154877	167.679718	134.190536
4840.879065	184.687317	166.744583	131.618942
4840.882397	182.641739	165.517242	129.514908
4840.885732	181.122147	165.575684	128.287552
4840.889067	180.128571	164.348343	125.189949
4840.892452	178.433670	163.179428	124.021042
4840.895798	176.855637	162.711853	121.741676
4840.898672	175.569839	161.133835	119.696083
4840.901950	174.400940	160.490936	117.182938
4840.905295	173.407364	159.614258	115.721802
4840.908612	172.530685	158.912918	114.202225
4840.911948	170.835770	158.620697	112.682640
4840.915270	169.959091	157.685562	111.221504
4840.918606	169.433075	157.568665	109.409698
4840.921515	167.153717	157.101105	107.831680
4840.924851	166.218597	155.581528	106.662773
4840.928187	165.225021	155.873764	106.136765
4840.931520	164.757462	155.289307	103.623619
4840.934852	163.822327	154.997070	103.623619
4840.938186	162.770309	154.529510	101.636467
4840.941541	161.309174	153.652832	101.227356
4840.944905	160.666275	153.302155	100.233780
4840.948191	160.374039	152.659256	98.129745
4840.951513	159.029800	152.834595	98.012856
4840.954870	158.328461	152.250153	97.253067
4840.958182	158.679138	151.782578	97.077736
4840.961512	156.925781	151.782578	96.259499
4840.964852	156.691986	152.133255	95.382812
4840.968190	156.399765	151.665680	95.791939
4840.971510	156.049103	150.730560	95.616600
4840.974849	155.523087	150.964340	94.272354
4840.978182	155.055527	150.730560	93.921684
4840.981512	154.295731	150.496780	93.863235
4840.984848	153.886612	150.730560	94.097015
4840.988180	153.945068	150.496780	93.337234
4840.991511	153.243713	150.204559	93.629456
4840.994846	152.834595	149.970779	92.402107
4840.998190	152.600815	149.912338	92.109879
4841.001512	152.834595	150.204559	92.635887
4841.004843	151.782578	150.321442	92.518997
4841.008179	151.139694	150.087662	92.285217
4841.011515	151.022797	149.795441	91.700760
4841.014842	150.847458	149.386322	92.109879
4841.018192	150.321442	149.503220	91.408531
4841.021516	149.912338	149.678558	91.642311
4841.024842	149.970779	149.912338	91.583870
4841.028214	149.970779	150.438339	90.765633
4841.031508	149.210983	150.321442	90.707191
4841.034840	149.152542	150.087662	90.940971
4841.039470	148.626526	150.146118	90.181175
4841.042418	148.451202	150.905914	89.362946
4841.045695	148.100525	150.847458	90.064285
4841.049111	147.749847	150.964340	89.655174
4841.052472	147.516068	151.841034	89.888954
4841.055779	147.925186	151.899475	89.596725
4841.059022	147.983627	152.308594	90.298065
4841.062354	147.691406	152.483932	90.414963
4841.065271	147.516068	152.834595	90.356514
4841.068591	148.158966	153.360611	90.298065
4841.071950	148.100525	153.828171	90.999420
4841.075262	148.217422	154.120392	91.350090
4841.078640	148.042084	154.763290	91.057861
4841.081978	148.100525	155.698425	91.700760
4841.084850	148.918762	156.049103	92.752777
4841.088213	148.918762	156.458206	92.752777
4841.091506	148.743423	157.042664	94.213905
4841.094835	149.503220	158.036224	94.506142
4841.098173	150.087662	158.562241	95.558151
4841.101502	150.438339	159.380478	96.960846
4841.104834	150.555237	160.257156	98.188194
4841.108171	151.373474	161.250732	98.947983
4841.111503	151.841034	162.244293	100.350677
4841.114829	152.542374	162.127411	100.701347
4841.118171	153.009933	163.471649	102.454712
4841.121502	153.419052	163.997665	103.331390
4841.124835	154.061951	165.517242	103.740501
4841.128176	154.237289	166.744583	105.552307
4841.131491	154.821747	167.445938	107.188774
4841.134833	155.698425	168.088837	108.766808
4841.138169	156.165985	169.082397	109.877266
4841.141500	156.341324	170.718872	110.695503
4841.144827	157.042664	170.777313	112.331978
4841.148167	157.510239	172.063126	113.267097
4841.151492	158.503799	173.641144	114.669785
4841.154846	159.146698	174.459381	116.130913
4841.158190	159.263580	176.037415	117.124489
4841.161493	159.672699	176.855637	118.527176
4841.164826	160.607834	178.375214	119.929863
4841.168164	161.309174	179.193451	121.390999
4841.171502	161.484512	180.596130	122.559906
4841.174825	161.835175	182.057266	124.839272
4841.178160	162.653427	183.518402	125.423729
4841.181494	163.237869	184.628876	126.826416
4841.184827	164.465225	186.090012	128.579788
4841.188163	165.341904	187.025131	130.333130
4841.191492	165.341904	189.012283	132.261841
4841.194827	165.926361	190.005844	133.547623
4841.198157	167.095261	191.583878	136.002335
4841.201503	167.679718	193.161896	137.521927
4841.205755	169.082397	196.142609	142.080658
4841.209078	169.608414	197.954422	144.418472
4841.212352	170.017532	200.000000	146.639389
4841.215676	171.244888	201.052017	150.087662
4841.218999	172.472244	203.331375	152.250153
4841.222360	173.348923	204.383392	154.354172
4841.225695	173.933380	206.896545	157.393341
4841.228603	174.751602	209.175919	160.783173
4841.231939	175.862076	210.870834	163.354767
4841.235273	176.680298	212.390427	167.562836
4841.238583	177.732330	214.319107	170.601990
4841.241914	178.667450	216.072464	174.342484
4841.245265	180.011688	218.819397	177.615433
4841.248584	181.472824	220.455887	182.291061
4841.251483	181.063705	222.443008	185.388657
4841.254820	182.407959	224.254822	189.246063
4841.258150	183.284622	226.651077	193.220337
4841.261485	183.869095	228.638214	197.369965
4841.264820	185.213333	230.625366	201.285797
4841.268156	186.206894	233.606079	204.967850
4841.271486	186.849792	235.768555	209.117477
4841.274815	187.609589	237.872604	213.793106
4841.278149	188.544708	239.684387	218.468735
4841.281510	189.012283	241.671539	222.793701
4841.284813	189.655167	244.009354	228.345993
4841.288147	190.590302	246.639389	232.028061
4841.291492	191.466980	248.509644	236.469910
4841.294819	191.876099	250.964355	240.677979
4841.298146	191.759201	253.126831	245.879608
4841.301479	192.518997	255.347748	250.730560
4841.304815	192.811234	257.685577	256.107544
4841.308148	193.337219	259.555817	261.309174
4841.311478	193.921692	262.068970	265.517242
4841.314810	194.097015	264.640564	270.426666
4841.318144	194.330795	266.569244	276.738739
4841.321482	194.097015	268.205750	281.940399
4841.324849	193.512573	270.777313	286.557587
4841.328141	193.687897	273.348938	292.460571
4841.331481	194.155472	274.810059	298.772644
4841.334809	193.921692	277.557007	305.435425
4841.338148	193.220337	279.894806	310.695496
4841.341479	193.045013	282.174164	317.299805
4841.344811	192.402100	283.927551	323.202789
4841.348138	192.518997	286.616028	329.982483
4841.351473	191.934540	288.135590	336.528351
4841.354805	191.116302	291.174744	344.067780
4841.358178	190.005844	292.694336	351.841034
4841.361479	188.661606	295.090576	358.328461
4841.364808	187.901810	296.434845	366.686157
4841.368138	186.849792	298.947968	374.167145
4841.372763	183.459961	302.454712	389.479828
4841.375703	182.524841	304.383392	397.720612
4841.379018	179.777908	305.493866	406.779663
4841.382395	178.667450	307.247223	415.078888
4841.385745	176.504974	308.357697	423.495056
4841.389087	174.225601	310.169495	431.911194
4841.392315	172.063126	310.695496	439.976654
4841.395651	168.965515	312.390411	449.503235
4841.398565	166.861481	313.150208	457.802429
4841.401896	163.062531	314.085327	466.218567
4841.405227	160.607834	314.319122	475.745209
4841.408566	157.101105	314.845123	486.206909
4841.411958	153.828171	315.195801	494.330780
4841.415254	150.613678	315.429565	503.039185
4841.418143	146.873169	315.429565	512.507324
4841.421473	142.723541	315.663361	521.040344
4841.424803	138.340149	315.254242	529.807129
4841.428133	134.073639	315.137329	538.983032
4841.431468	129.982468	314.669769	547.749878
4841.434795	125.131500	313.793121	556.808899
4841.438137	119.929863	312.974854	564.523621
4841.441464	114.494446	311.981293	573.524231
4841.444800	109.000587	310.987732	580.654602
4841.448131	104.383400	310.111053	589.538269
4841.451467	98.947983	308.416138	598.071289
4841.454830	92.635887	307.013428	605.435425
4841.458135	86.616013	305.026306	614.552856
4841.461470	80.479256	303.623596	621.098755
4841.464789	73.933372	300.642883	629.047363
4841.468134	67.153709	298.129761	636.411499
4841.471463	60.023380	295.733490	642.898865
4841.474800	53.068382	292.694336	651.022827
4841.478134	45.470486	289.947388	657.568665
4841.481468	38.398598	287.083588	664.699036
4841.484792	30.566919	283.635315	672.063110
4841.488128	22.267679	280.128571	679.076599
4841.491458	14.085330	276.329651	685.271790
4841.494799	5.260082	271.712433	691.350098
4841.498166	-3.915838	266.861481	697.369934
4841.501460	-12.916424	262.770325	703.448303
4841.504814	-22.326126	257.276428	708.416138
4841.508126	-31.092926	252.425476	713.500854
4841.511466	-39.684395	246.522491	718.994751
4841.514795	-49.035652	240.911743	724.079468
4841.518125	-58.153130	235.534760	729.047363
4841.521458	-68.322617	229.047348	732.554077
4841.524791	-77.732315	222.793701	737.171265
4841.528122	-87.668030	215.663361	740.093506
4841.531453	-96.785507	209.117477	743.074219
4841.535711	-115.371132	195.324371	748.217468
4841.539072	-125.365280	188.135590	749.970764
4841.542355	-134.541199	180.537704	751.548828
4841.545636	-144.184692	172.881348	752.893066
4841.548991	-152.776154	165.634125	753.535950
4841.552365	-162.068970	157.744019	754.471069
4841.555662	-171.128006	150.204559	753.419067
4841.559060	-180.479248	142.840439	754.354187
4841.561904	-188.194031	135.476334	752.776123
4841.565252	-197.194626	128.053772	749.503235
4841.568544	-205.493851	120.397423	748.918762
4841.571884	-213.559311	112.565758	747.282288
4841.575205	-221.975449	105.669197	745.587402
4841.578542	-229.631805	97.954407	742.606628
4841.581454	-237.112808	90.882523	739.742859
4841.584815	-244.886047	83.226189	736.586792
4841.588119	-252.717712	76.388077	732.554077
4841.591463	-259.789581	69.316193	728.521362
4841.594783	-266.393921	62.536526	723.553467
4841.598117	-273.816498	54.821743	718.410278
4841.601453	-280.070129	48.684978	713.150208
4841.604782	-287.025146	42.139099	707.773193
