time (s)	magX	magY	magZ
1568.101263	370.474579	-178.715363	296.908234
1568.104584	371.526581	-178.773804	300.122742
1568.107970	373.221497	-179.533600	304.097015
1568.110817	375.150208	-179.884262	308.597321
1568.114181	377.195770	-180.293396	313.389832
1568.117467	377.780243	-181.170074	318.007019
1568.120798	380.702515	-181.696075	321.805969
1568.124141	381.754517	-182.514313	328.059631
1568.127455	384.150787	-183.390991	332.092346
1568.130810	385.495026	-184.326126	336.475739
1568.133707	387.540619	-184.969025	342.261841
1568.137059	389.293976	-185.904144	347.521912
1568.140370	391.047333	-186.780823	352.957336
1568.143707	392.391571	-187.832840	357.808289
1568.147033	394.437164	-188.826401	362.776154
1568.150369	396.015198	-190.696671	368.796051
1568.153702	397.593201	-191.222672	374.699005
1568.157036	398.995880	-191.982452	380.017548
1568.160367	400.924591	-193.326706	385.803619
1568.163697	402.093506	-194.144943	391.881958
1568.167038	403.613098	-195.430725	397.784912
1568.170361	405.015778	-196.365860	404.915253
1568.173705	406.184692	-197.710114	410.935150
1568.177036	408.230286	-198.645233	417.890137
1568.180401	409.165405	-199.405029	424.552887
1568.183699	410.334290	-199.931030	431.741699
1568.187031	412.496765	-200.515488	438.872040
1568.190365	414.367035	-201.158386	445.651642
1568.193703	416.178833	-202.210403	452.781982
1568.197027	417.464630	-202.911743	460.964355
1568.200371	418.925751	-203.145523	471.250732
1568.203699	420.270020	-202.561066	479.783752
1568.207031	421.731140	-203.788422	486.972534
1568.210363	423.309174	-203.905304	496.089996
1568.213697	424.361176	-204.197540	504.447662
1568.217028	425.296295	-204.080658	514.091125
1568.220359	427.225006	-203.788422	522.682617
1568.223719	428.393921	-204.139084	532.852112
1568.227026	429.913483	-204.606659	542.437134
1568.230358	430.322632	-203.788422	552.139099
1568.233721	431.433075	-203.671524	561.081238
1568.237039	432.368195	-203.729980	572.185852
1568.240363	432.660431	-203.729980	581.303284
1568.243695	433.186432	-203.437744	592.700134
1568.247025	433.420227	-203.379303	603.512512
1568.251659	434.413788	-202.677963	624.786682
1568.254997	433.303314	-202.561066	636.008179
1568.257914	433.537109	-201.742844	646.995850
1568.261287	434.004669	-201.742844	657.925171
1568.264630	432.835754	-201.567490	669.205139
1568.268000	431.433075	-201.158386	681.011108
1568.271210	430.907043	-200.924591	691.648132
1568.274546	429.738159	-200.690811	703.220337
1568.277459	428.686127	-199.931030	713.740479
1568.280783	426.757446	-200.164810	725.429504
1568.284116	425.413208	-199.580353	736.417297
1568.287446	423.133850	-198.528336	748.632385
1568.290802	421.088226	-198.762115	760.496765
1568.294134	418.984222	-198.352997	771.776733
1568.297478	416.529510	-197.710114	784.459351
1568.300374	413.022766	-196.424301	795.797791
1568.303689	410.684967	-195.372299	806.317932
1568.307022	406.710693	-194.144943	818.299255
1568.310368	404.723541	-193.151367	829.696045
1568.313688	400.866150	-191.514893	841.911133
1568.317026	395.722961	-189.878433	853.833984
1568.320351	392.274689	-187.774399	864.938599
1568.323683	387.540619	-186.079483	877.036804
1568.327018	383.449432	-183.858566	888.082947
1568.330352	378.598480	-181.579178	899.538269
1568.333687	373.981293	-178.481583	912.162415
1568.337019	368.604309	-174.974854	923.267029
1568.340353	363.285797	-172.753937	935.189941
1568.343685	357.499695	-169.188766	945.359375
1568.347017	351.830505	-166.032715	958.042114
1568.350349	345.869080	-161.649323	968.211487
1568.353685	338.563416	-158.259491	979.666870
1568.357009	331.433075	-154.051422	990.362305
1568.360346	324.127411	-149.375793	1000.356506
1568.363773	316.646393	-144.992401	1011.168884
1568.367015	309.223846	-139.790771	1021.455200
1568.370351	301.333710	-135.641144	1030.280518
1568.373681	293.209808	-130.790176	1040.157715
1568.377017	284.267700	-125.997658	1049.333740
1568.380346	274.857971	-120.737587	1057.515991
1568.383708	265.623627	-116.061951	1066.399658
1568.387010	255.804810	-111.269432	1074.231323
1568.390347	246.219757	-105.717125	1081.244873
1568.393682	235.582703	-101.392166	1087.966064
1568.397008	225.296326	-95.956749	1095.563965
1568.400342	214.425476	-90.404449	1101.350098
1568.403677	204.080658	-85.728813	1109.006470
1568.407011	193.151367	-80.760956	1113.331299
1568.410345	181.812988	-75.208649	1118.883667
1568.414619	158.434845	-65.331383	1127.533569
1568.417969	147.213333	-60.071304	1131.916992
1568.421275	135.641144	-55.278786	1133.611938
1568.424524	124.185860	-50.720047	1137.118652
1568.427897	112.029221	-45.050846	1140.099365
1568.431185	100.164810	-39.498539	1141.969604
1568.434546	87.891296	-33.829338	1143.021606
1568.437899	75.559326	-28.627703	1144.424316
1568.440787	63.753361	-23.016949	1144.132080
1568.444122	52.122734	-18.165985	1143.313843
1568.447499	39.147865	-11.152542	1144.599609
1568.450768	27.283461	-5.191116	1142.963135
1568.454090	14.951490	0.887201	1141.385132
1568.457467	3.203976	7.140854	1140.508423
1568.460342	-9.127998	13.277615	1137.936768
1568.463674	-21.167736	19.881941	1134.196289
1568.467004	-33.090591	26.486265	1131.040283
1568.470366	-44.253654	33.149033	1127.475098
1568.473672	-56.001167	39.870255	1122.214966
1568.477003	-68.333138	47.000587	1117.714722
1568.480339	-79.963768	53.371124	1111.753296
1568.483685	-91.243721	60.793686	1106.785400
1568.487001	-102.523674	67.281120	1100.181152
1568.490339	-113.394508	74.119225	1092.992310
1568.493668	-124.440681	81.191116	1086.388062
1568.497005	-135.136169	87.795441	1079.140747
1568.500337	-146.123901	94.458214	1071.075439
1568.503664	-156.644073	100.945641	1062.425415
1568.507000	-166.579773	106.848625	1054.769043
1568.510333	-176.866150	113.452950	1045.417847
1568.513688	-186.626526	119.472816	1036.767944
1568.516995	-196.912903	125.258919	1026.423096
1568.520327	-206.439514	130.811234	1017.130371
1568.523665	-215.615448	135.662186	1007.194580
1568.526999	-224.440674	141.156052	997.843323
1568.530334	-233.616608	145.364120	988.667419
1568.533663	-242.734070	149.455292	977.913513
1568.537001	-250.741119	154.481598	966.692017
1568.540329	-259.098785	157.754547	955.996460
1568.543664	-266.696686	161.787262	944.658020
1568.546997	-274.703705	165.410873	933.085876
1568.550330	-282.126251	168.742264	923.793091
1568.553660	-289.431915	171.839874	913.097595
1568.557016	-295.860901	174.879028	902.051392
1568.560329	-302.874359	177.450623	891.297485
1568.563657	-309.186432	179.729980	880.894226
1568.566994	-314.855652	182.593811	869.497314
1568.570324	-321.167725	185.048523	858.918701
1568.573679	-325.668030	187.210999	847.580383
1568.578271	-336.421967	191.945068	826.247803
1568.581187	-340.863831	194.575104	815.435364
1568.584501	-345.597900	196.796021	803.103394
1568.587897	-350.156647	199.016968	792.700134
1568.591201	-353.897156	200.653427	781.420166
1568.594584	-357.286987	202.815903	769.731140
1568.597905	-360.676819	204.919952	758.275818
1568.600804	-363.832855	207.374634	748.398560
1568.604078	-366.229126	208.718887	736.943298
1568.607411	-369.443604	210.647568	725.780212
1568.610754	-371.196991	212.400955	714.266479
1568.614076	-373.651642	213.978973	702.986511
1568.617413	-375.814148	216.258331	691.589661
1568.620749	-377.392151	217.368805	680.777283
1568.623656	-379.145538	219.180603	670.724731
1568.626992	-380.898926	219.998856	659.620056
1568.630322	-382.418488	221.635300	648.866089
1568.633654	-383.704285	222.511993	638.170593
1568.636985	-383.996490	223.096436	627.825806
1568.640316	-385.340759	224.031555	617.188721
1568.643648	-386.275879	224.791351	607.662170
1568.647033	-386.977203	225.200470	598.018677
1568.650327	-387.035675	225.726471	588.258301
1568.653649	-387.620117	226.310928	577.971924
1568.656982	-387.503204	226.135605	568.796021
1568.660320	-388.379913	225.960266	558.042053
1568.663657	-388.263000	225.434250	549.859680
1568.667022	-388.438324	225.258911	540.625305
1568.670313	-388.672119	225.258911	531.858521
1568.673648	-388.438324	224.791351	523.734619
1568.676990	-387.795441	223.622452	514.091125
1568.680316	-387.853912	223.505554	507.311493
1568.683646	-388.204590	222.687332	498.369385
1568.686985	-388.146118	221.752197	490.420807
1568.690314	-387.210999	220.758621	482.530701
1568.693649	-386.977203	220.057281	475.283447
1568.696981	-387.210999	219.472824	466.458191
1568.700311	-385.749878	218.420807	459.094116
1568.703647	-385.282288	216.842789	452.431305
1568.706984	-384.171814	215.849228	445.534760
1568.710317	-383.762695	215.206329	438.988892
1568.713644	-383.178284	214.446533	432.092346
1568.716982	-381.950897	214.212738	425.780273
1568.720314	-380.431335	212.926941	419.643463
1568.723641	-379.379333	211.874924	413.915833
1568.726975	-378.444214	211.874924	407.311493
1568.730309	-377.567535	210.706024	401.174744
1568.733647	-375.229706	209.244888	394.745758
1568.738269	-373.067230	209.128006	384.459381
1568.741229	-371.489197	208.134430	378.030396
1568.744514	-370.437195	207.959091	372.478088
1568.747908	-368.216248	207.082397	367.042664
1568.751234	-366.872040	206.439514	361.899475
1568.754519	-365.118652	206.497971	355.645813
1568.757823	-363.832855	205.329056	351.203979
1568.761157	-362.021057	204.803055	345.826996
1568.764072	-360.969025	204.510818	340.099365
1568.767401	-358.748108	203.225037	335.715973
1568.770760	-357.286987	202.874344	330.572784
1568.774095	-356.176514	201.705444	326.598480
1568.777418	-355.066040	201.179443	321.046173
1568.780752	-352.669800	200.361191	317.188782
1568.783700	-351.325531	199.718292	312.630066
1568.786975	-349.630615	199.075409	308.889526
1568.790303	-348.695496	197.848053	304.798370
1568.793639	-347.000580	196.562256	300.414978
1568.796973	-345.481018	196.562256	296.323792
1568.800306	-344.954987	195.744019	292.407959
1568.803635	-343.260071	194.341339	289.076569
1568.806974	-342.091187	192.938644	285.277618
1568.810303	-341.156067	192.587967	282.939819
1568.813658	-339.461151	191.535934	279.082428
1568.816967	-338.818237	189.957916	275.867920
1568.820303	-337.298676	189.139694	272.770294
1568.823640	-336.305115	188.438354	270.374054
1568.826982	-335.720642	187.269440	266.691986
1568.830300	-334.201050	186.860306	264.763306
1568.833633	-333.908813	186.392746	262.074799
1568.836964	-332.856842	185.340744	260.438354
1568.840303	-331.863251	184.405624	257.457642
1568.843631	-331.454102	183.295166	255.236725
1568.846966	-330.109894	182.126251	253.892456
1568.850306	-329.525421	182.009354	251.963745
1568.853632	-328.648743	181.483353	249.216827
1568.856989	-327.772064	180.782013	247.580353
1568.860298	-326.836945	179.613098	246.528366
1568.863633	-326.077148	179.028641	245.008774
1568.866960	-324.791351	178.794861	242.320267
1568.870306	-324.206909	178.970200	241.326706
1568.873634	-322.862640	178.444199	239.690247
1568.876967	-322.745789	178.619522	237.060211
1568.880297	-321.284637	177.450623	235.540619
1568.883627	-320.524841	177.392166	233.962601
1568.886967	-319.180603	177.333725	232.150787
1568.890296	-318.245483	177.041504	230.748108
1568.893630	-317.661041	177.158386	229.579208
1568.898312	-315.498535	176.281708	226.949158
1568.901272	-315.147888	176.340164	225.663345
1568.904578	-313.920532	175.755707	223.909988
1568.907883	-313.043823	175.580368	221.805969
1568.911142	-312.050262	175.405045	220.753952
1568.914508	-311.465820	175.288147	220.111053
1568.917800	-310.413788	175.463470	218.942139
1568.921157	-310.530701	175.054367	217.597885
1568.924049	-309.887787	174.762131	217.422546
1568.927408	-309.478668	174.119232	216.779663
1568.930758	-309.244904	173.943909	216.078323
1568.934074	-308.718872	174.353012	214.850967
1568.937390	-308.777344	173.885452	213.857391
1568.940713	-308.894226	173.651672	213.974289
1568.943653	-308.894226	173.300995	213.331390
1568.946954	-308.368225	172.833435	213.039154
1568.950290	-308.660431	172.833435	212.279358
1568.953620	-308.485107	172.599655	212.162491
1568.956965	-308.601990	172.891876	211.928696
1568.960287	-308.426636	172.073654	212.104034
1568.963629	-309.011108	171.956757	212.104034
1568.966956	-308.952667	172.015198	212.805389
1568.970282	-309.069580	171.781418	212.922256
1568.973622	-309.303345	171.781418	213.506714
1568.976954	-309.303345	171.664520	213.389816
1568.980285	-310.063141	171.722977	214.324951
1568.983620	-309.420227	171.606094	214.324951
1568.986966	-310.530701	171.898300	215.026306
1568.990287	-310.939819	171.781418	215.903000
1568.993620	-310.706024	172.541214	216.253662
1568.997039	-310.939819	172.482758	217.422546
1569.000285	-311.641144	172.599655	217.656342
1569.003617	-311.582703	173.125656	218.766800
1569.006948	-312.400940	173.359436	219.351257
1569.010286	-312.517853	173.827011	220.461731
1569.013620	-313.628296	173.943909	221.513748
1569.016950	-314.037415	175.054367	222.507309
1569.020287	-314.388092	175.288147	223.325531
1569.023611	-314.446533	175.521927	224.903564
1569.026951	-314.504974	175.931030	225.429581
1569.030295	-314.972534	177.158386	226.598480
1569.033614	-315.323212	177.625961	227.767395
1569.036944	-315.498535	177.918182	229.228516
1569.040281	-316.141449	178.970200	230.455872
1569.043615	-316.667450	178.853302	231.624786
1569.046947	-316.959686	179.788437	232.676788
1569.051627	-318.303925	180.898895	235.949722
1569.054547	-319.063721	180.898895	236.651077
1569.057795	-320.291077	181.892471	237.995331
1569.061122	-321.167725	182.710709	239.748688
1569.064458	-321.869080	182.652252	241.326706
1569.067859	-323.271790	183.119812	243.839859
1569.071154	-324.031586	184.405624	244.658081
1569.074091	-324.499146	184.697861	247.521912
1569.077396	-325.258942	185.223846	249.801300
1569.080728	-326.603149	185.399185	252.606689
1569.084032	-327.655182	186.743439	254.886017
1569.087372	-329.174774	187.152542	256.873169
1569.090694	-329.642334	187.035675	259.269440
1569.094029	-331.571014	187.912338	262.542358
1569.096940	-332.623047	187.970795	265.172394
1569.100274	-334.025726	188.555237	268.094666
1569.103610	-334.493286	189.256592	271.250732
1569.106941	-335.369965	189.548813	275.341919
1569.110289	-337.590881	190.367050	278.439514
1569.113608	-337.883118	190.951508	281.420227
1569.116940	-340.220947	192.120392	285.277618
1569.120276	-341.214508	192.587967	288.492096
1569.123602	-343.143219	193.639984	292.349518
1569.126935	-343.961426	194.165985	296.206909
1569.130270	-345.539459	194.984238	299.655182
1569.133599	-347.117493	196.094696	303.746338
1569.136958	-348.461731	197.205154	308.071289
1569.140275	-349.046204	198.666275	311.753357
1569.143602	-350.448883	199.016968	316.487427
1569.146931	-352.143799	199.835190	320.695496
1569.150268	-353.020447	201.179443	324.728210
1569.153634	-354.130920	201.880783	328.585632
1569.156937	-355.124512	203.049698	333.611908
1569.160274	-356.760956	204.803055	338.170654
1569.163600	-358.455872	205.738174	342.787842
1569.166936	-359.391022	206.614838	346.995911
1569.170269	-359.741699	208.368225	351.379333
1569.173598	-360.618347	208.894211	356.990082
1569.176932	-361.962616	210.180008	362.016357
1569.180261	-363.599060	211.524261	365.990662
1569.183597	-363.774414	212.634720	372.594971
1569.186932	-365.819977	214.154297	377.329071
1569.190262	-366.813568	214.504974	382.706024
1569.193601	-367.807159	215.790756	388.141449
1569.196946	-369.385162	216.492111	394.570404
1569.200262	-370.086487	217.310349	400.473419
1569.203595	-371.606079	217.836365	405.967255
1569.208235	-374.586792	219.823486	419.117462
1569.211135	-375.288147	220.407959	424.377563
1569.214444	-376.281708	220.992416	432.209229
1569.217805	-378.151947	221.518402	438.579773
1569.221146	-379.262390	221.927536	445.534760
1569.224542	-379.671539	221.985977	451.963776
1569.227859	-381.132660	223.037994	459.620117
1569.231240	-382.126251	223.037994	467.276459
1569.234027	-382.652252	223.739349	477.329041
1569.237359	-384.113403	224.031555	485.102295
1569.240704	-384.580963	224.499115	493.810638
1569.244014	-385.340759	224.265350	501.993011
1569.247353	-385.866730	225.142044	511.052032
1569.250691	-386.918793	225.375809	518.357666
1569.253592	-387.795441	225.142044	527.416687
1569.256923	-386.860321	225.726471	536.183472
1569.260256	-387.678589	225.784927	545.300964
1569.263589	-387.620117	225.901810	554.126221
1569.266922	-387.561646	225.668030	564.237244
1569.270254	-387.035675	226.544724	573.763855
1569.273585	-386.977203	226.603165	582.764404
1569.276963	-385.925201	226.953827	592.641724
1569.280261	-385.632935	226.778503	602.694336
1569.283618	-385.165405	226.836929	611.870239
1569.286924	-383.587372	226.953827	621.221497
1569.290258	-381.308044	227.304489	631.566345
1569.293585	-380.723572	226.953827	641.326721
1569.296923	-379.437775	227.187622	651.671509
1569.300254	-376.690826	226.778503	661.607178
1569.303584	-375.288147	226.310928	671.542908
1569.306918	-373.476318	226.369370	681.887756
1569.310249	-370.729401	225.960266	691.180542
1569.313590	-368.917603	225.668030	702.168335
1569.316918	-366.521301	224.791351	711.928711
1569.320256	-363.832855	223.330231	722.156616
1569.323586	-361.027496	222.511993	733.378113
1569.326936	-358.572784	222.278198	743.606018
1569.330259	-355.533600	220.466415	754.476868
1569.333580	-352.786682	219.180603	765.172363
1569.336914	-349.338379	217.310349	775.926331
1569.340252	-345.890137	215.030991	786.972534
1569.343586	-342.208069	212.810059	798.720032
1569.346916	-338.233795	210.822922	809.298645
1569.350267	-333.850403	208.251328	821.046082
1569.353586	-329.759216	205.679718	830.923401
1569.356954	-325.434265	202.815903	842.846252
1569.360253	-320.817078	199.484528	854.710693
1569.363582	-315.673889	195.919357	866.165955
1569.368238	-304.452393	189.315018	889.310303
1569.371139	-298.724731	184.814728	900.005859
1569.374452	-292.704865	181.366455	912.337830
1569.377789	-286.626526	177.216843	922.624146
1569.381178	-279.496185	173.067215	934.196289
1569.384509	-272.073669	168.625366	945.125610
1569.387759	-264.826416	165.352432	957.691406
1569.391095	-256.351868	159.800125	967.860840
1569.394010	-248.227936	155.650513	978.030334
1569.397334	-240.805389	150.682648	988.199829
1569.400692	-232.038574	146.474594	997.726501
1569.403999	-223.213348	141.798950	1007.954346
1569.407359	-213.862061	137.707779	1016.896484
1569.410701	-204.043243	132.623032	1026.481567
1569.413589	-194.925781	128.122742	1035.014526
1569.416908	-185.574493	123.330223	1044.716553
1569.420245	-175.463470	119.063698	1052.957275
1569.423576	-164.592651	113.862068	1060.087646
1569.426908	-153.838684	108.718880	1068.211548
1569.430243	-143.844543	104.160133	1075.166504
1569.433576	-133.149048	98.724716	1082.413818
1569.436904	-122.278206	93.815308	1087.849121
1569.440240	-110.998253	88.438339	1094.511963
1569.443605	-100.127403	83.236702	1099.713501
1569.446903	-88.964348	77.859726	1105.441284
1569.450242	-77.742836	72.716537	1109.240234
1569.453571	-66.696663	66.696663	1114.441772
1569.456914	-55.241379	61.670364	1118.942139
1569.460238	-44.136757	55.299820	1122.214966
1569.463569	-32.564583	48.929276	1126.306152
1569.466907	-21.459965	42.441849	1130.046631
1569.470236	-9.770893	36.831093	1133.728882
1569.473560	1.801289	30.285212	1135.949707
1569.476907	13.256577	24.031561	1137.352417
1569.480234	24.711864	17.602571	1139.397949
1569.483567	36.108707	10.413794	1140.975952
1569.486924	48.148453	4.335478	1141.502075
1569.490234	60.188194	-2.444184	1140.742187
1569.493564	71.526596	-9.282290	1142.437134
1569.496906	83.449448	-16.354177	1142.495605
1569.500235	94.670952	-23.367620	1139.690186
1569.503563	106.769142	-30.030392	1137.995239
1569.506898	117.581528	-36.751606	1136.358887
1569.510236	129.855057	-43.239044	1133.378052
1569.513568	140.901230	-49.960258	1130.046631
