time (s)	magX	magY	magZ
4733.326369	401.682068	324.144348	951.355957
4733.329694	406.708374	326.949738	941.186462
4733.333019	409.747498	328.936859	930.607849
4733.335947	414.247803	331.508453	919.152588
4733.339266	418.338989	333.495605	907.989563
4733.342591	421.436584	335.424316	897.410889
4733.345976	425.644653	337.645233	885.663330
4733.349244	429.151367	339.807709	874.149658
4733.352567	432.482727	341.677948	862.577454
4733.355473	434.937439	343.489746	851.180603
4733.358840	438.327271	345.243134	839.959106
4733.362149	440.957336	346.645813	828.854492
4733.365482	444.230286	348.106934	816.873230
4733.368812	446.860291	348.866730	805.885437
4733.372158	448.613708	349.977203	794.722412
4733.375480	450.425476	351.204559	783.500916
4733.378816	453.230835	352.256561	772.571594
4733.382142	454.808899	353.074799	762.460571
4733.385477	455.276428	354.185242	751.881958
4733.388806	457.555786	355.529510	742.530701
4733.392145	458.783203	355.412598	732.302734
4733.395478	459.192261	355.763275	722.659302
4733.398816	459.718323	355.938599	713.132690
4733.402167	460.653442	356.639954	703.547668
4733.405474	461.939209	357.049103	696.183533
4733.408806	462.523682	356.990631	687.533630
4733.412143	463.166565	357.516663	679.760376
4733.415491	463.751038	356.873749	672.396240
4733.418804	464.043274	357.049103	664.739929
4733.422142	463.867920	356.815308	657.726501
4733.425471	463.283508	357.224426	651.355957
4733.428802	463.926331	355.997070	645.394531
4733.432134	463.049683	356.055511	637.329041
4733.435471	463.341919	356.581543	630.900085
4733.438807	462.932800	355.763275	624.237305
4733.442140	462.932800	355.763275	617.925232
4733.445468	463.926331	355.061951	612.139099
4733.448804	462.114563	355.003479	606.236084
4733.452133	462.406738	354.068359	599.690247
4733.455476	462.114563	354.302155	593.378174
4733.458809	462.991211	353.659271	587.708923
4733.462138	462.465210	353.367035	581.338379
4733.466797	461.120972	351.672119	568.480408
4733.469665	460.361206	351.672119	561.817688
4733.472976	460.244324	351.204559	556.382263
4733.476360	459.075378	350.795410	550.245483
4733.479684	459.250732	349.334290	544.926941
4733.483061	458.257141	348.983643	537.562805
4733.486391	457.029785	348.106934	531.542969
4733.489284	456.679138	347.171814	524.938660
4733.492575	456.270020	347.464050	518.451172
4733.495886	456.328491	346.412018	512.255981
4733.499234	454.750427	346.236694	507.171265
4733.502563	453.406189	345.476898	501.268280
4733.505891	453.698425	344.834015	494.897736
4733.509229	451.302185	343.723541	489.696106
4733.512135	451.828186	342.963745	484.669800
4733.515459	450.016357	342.496185	479.292816
4733.518796	449.256592	342.262421	474.324982
4733.522130	448.730530	340.976593	469.181763
4733.525462	447.094116	340.275269	463.687927
4733.528792	446.860291	339.398590	459.772095
4733.532137	445.983643	338.755676	454.512024
4733.535464	445.165405	338.288116	451.297516
4733.538853	444.054932	338.229675	447.498535
4733.542153	443.762695	337.060760	443.874908
4733.545474	442.301575	337.002319	441.653992
4733.548792	442.301575	335.599640	439.257751
4733.552125	441.249573	335.599640	436.393921
4733.555460	440.197571	335.833405	434.348328
4733.558796	439.905273	335.132080	432.478088
4733.562168	439.262451	334.606049	428.737579
4733.565465	438.970154	334.255402	427.685577
4733.568792	437.742859	333.086487	425.932190
4733.572122	437.450623	333.203369	424.003540
4733.575473	437.099915	332.794281	421.782562
4733.578788	436.515503	331.976013	420.379913
4733.582126	435.580383	332.092926	418.217468
4733.585460	435.346619	331.566925	417.340729
4733.588790	434.879028	330.748657	415.353607
4733.592120	434.586792	330.982452	414.009369
4733.595454	433.476318	330.222656	412.665100
4733.598786	433.125671	329.813538	410.268860
4733.602123	432.599670	329.579773	408.164825
4733.605476	431.606079	328.703064	406.294556
4733.608786	432.248962	328.819977	405.242584
4733.612119	430.554077	328.469299	403.080078
4733.615457	430.378723	328.527740	401.151398
4733.618801	429.794250	327.826416	398.988892
4733.623410	429.502075	327.358856	394.956207
4733.626329	429.443604	326.599060	391.741699
4733.629670	428.800720	325.839264	390.923431
4733.633109	427.222656	326.248383	388.585632
4733.636394	427.222656	325.079468	387.007599
4733.639736	426.579773	326.014587	385.897156
4733.643008	426.287537	325.488586	384.728241
4733.645877	425.527771	325.137909	383.208679
4733.649234	425.001770	324.611908	381.864410
4733.652547	425.294006	324.553467	381.455322
4733.655871	424.651062	324.845703	380.520203
4733.659202	425.235535	324.728821	380.753967
4733.662564	424.768005	324.378143	379.468170
4733.665452	424.066650	324.495026	379.292847
4733.668781	424.826416	324.962585	379.000610
4733.672120	423.715942	325.196381	379.526611
4733.675479	423.832886	324.728821	379.526611
4733.678787	424.417297	325.079468	380.111053
4733.682120	423.540649	325.137909	381.338409
4733.685480	423.891296	325.780823	381.221527
4733.688782	424.709534	326.306824	383.208679
4733.692126	424.125061	326.423737	384.436035
4733.695451	425.060242	327.241943	385.020477
4733.698781	425.235535	327.241943	386.306274
4733.702111	425.294006	327.475739	388.936310
4733.705441	425.469299	328.118652	389.111633
4733.708779	426.287537	328.586212	391.215698
4733.712108	425.878418	329.170654	392.267700
4733.715447	426.346008	328.703064	395.014618
4733.718772	427.339539	329.287537	396.884857
4733.722114	426.988892	329.404449	399.339569
4733.725444	427.865601	330.047333	400.099365
4733.728798	428.625366	330.690216	402.670990
4733.732106	429.677368	331.216217	404.190521
4733.735440	428.800720	331.566925	405.593231
4733.738774	429.502075	331.976013	407.405029
4733.742123	430.028015	332.502045	408.749268
4733.745440	429.677368	332.618927	410.151978
4733.748780	431.021606	334.080048	411.846924
4733.752108	430.963196	334.196960	413.424896
4733.755440	430.495605	334.956757	415.002960
4733.758779	431.138550	335.190521	416.288757
4733.762106	431.898315	336.534760	417.399200
4733.765438	431.956726	336.593201	419.620117
4733.768776	432.541199	337.294556	421.665710
4733.772142	432.950317	337.645233	422.951508
4733.776797	433.885437	339.164825	426.750458
4733.779650	434.820618	339.281677	429.322052
4733.783042	435.054321	339.690826	430.724762
4733.786357	435.054321	341.444153	434.114594
4733.789615	435.989441	341.677948	436.627716
4733.792956	435.989441	342.203949	439.608429
4733.796300	437.450623	342.846863	442.472260
4733.799648	437.509033	344.541779	445.511414
4733.802528	438.035034	344.892426	448.492126
4733.805880	439.145569	345.710693	452.583313
4733.809218	439.788452	346.704254	457.609589
4733.812554	440.022217	347.405609	460.824097
4733.815947	440.665100	348.516083	464.915253
4733.819192	440.898865	349.334290	472.279388
4733.822105	442.184692	350.795410	477.013489
4733.825433	442.944458	351.379883	482.039764
4733.828761	443.295105	351.789001	486.540070
4733.832099	443.178284	352.256561	492.209229
4733.835437	444.288696	353.834595	497.118652
4733.838768	445.457642	355.354187	502.378723
4733.842101	445.516113	356.113953	508.983093
4733.845430	447.035645	356.639954	513.950928
4733.848761	446.918762	357.808868	520.087708
4733.852100	448.029236	358.743988	525.114014
4733.855431	448.204529	359.503784	531.601440
4733.858787	448.321472	360.380463	536.686157
4733.862100	448.613708	360.906464	542.063110
4733.865435	449.490356	361.081818	547.673889
4733.868764	449.548828	361.549377	553.109314
4733.872093	450.191711	362.601379	559.830505
4733.875446	450.250122	363.711853	564.973694
4733.878765	450.367065	363.594971	570.350708
4733.882095	451.652832	364.880768	575.435425
4733.885423	450.600830	366.049652	581.747498
4733.888764	451.828186	366.751007	588.468750
4733.892095	451.302185	367.101685	593.495056
4733.895423	451.828186	367.160126	598.755127
4733.898762	452.003540	367.569244	604.599670
4733.902132	451.535950	368.212128	612.080627
4733.905430	452.412659	369.381042	617.457642
4733.908764	451.886658	369.848602	623.009949
4733.912087	451.711243	370.666840	628.679138
4733.915421	451.652832	371.426636	634.932800
4733.918756	450.717712	371.485077	642.472229
4733.922093	450.776123	371.601959	649.368774
4733.925425	450.483948	372.303314	656.265320
4733.929680	450.250122	373.764465	671.461121
4733.933026	449.431946	374.115112	678.942139
4733.936277	447.853882	373.706024	686.598450
4733.939629	448.087708	374.874908	694.897705
4733.942942	447.152527	374.641144	703.839844
4733.946340	446.509644	374.465820	712.548218
4733.949625	445.165405	374.524231	721.899475
4733.952549	443.821167	374.465820	730.140320
4733.955877	441.600220	374.524231	739.900696
4733.959201	441.541809	374.232025	749.135010
4733.962509	439.262451	374.173584	759.538330
4733.965854	437.567505	373.530670	769.883118
4733.969174	435.931030	373.063110	779.175964
4733.972088	432.833435	372.653992	789.871460
4733.975424	431.372314	372.244873	799.514893
4733.978753	429.151367	370.608398	809.216797
4733.982082	426.229126	370.666840	820.146118
4733.985419	423.891296	369.147247	830.140259
4733.988770	421.144348	368.329041	839.900635
4733.992081	418.280518	368.095276	849.719482
4733.995419	415.241394	366.692566	860.882507
4733.998750	412.552917	364.939209	869.123291
4734.002080	409.455261	363.653412	880.052612
4734.005418	407.000549	362.426056	889.170105
4734.008751	402.792542	360.555786	898.872009
4734.012099	400.220947	359.445343	909.567505
4734.015423	397.240234	357.165955	917.925232
4734.018753	392.739929	356.113953	926.808899
4734.022081	389.116272	355.003479	936.744629
4734.025418	385.083557	352.899475	947.907654
4734.028746	381.109314	350.620087	957.025208
4734.032096	377.193481	348.632935	966.843933
4734.035411	373.336060	346.821136	975.201660
4734.038750	369.127991	344.600220	985.137390
4734.042080	364.803040	342.613098	994.138000
4734.045410	359.309204	339.807709	1003.664551
4734.048742	354.750427	337.119202	1013.892517
4734.052077	349.607239	334.196960	1022.717712
4734.055410	344.113403	331.216217	1032.536499
4734.058749	338.561096	328.644653	1042.355347
4734.062083	332.950317	324.962585	1051.998779
4734.065404	327.164246	322.157196	1061.934570
4734.068740	320.618347	318.007599	1071.811768
4734.072076	314.014038	314.150208	1080.637085
4734.075434	307.175964	310.292816	1092.150757
4734.080037	292.856812	301.584442	1112.139038
4734.082958	285.609589	297.376373	1123.009888
4734.086253	277.368774	292.759186	1132.010376
4734.089616	269.303345	287.791321	1143.056641
4734.092953	261.004089	282.998810	1152.057251
4734.096341	252.295746	277.271179	1161.992920
4734.099688	243.645828	271.426636	1171.578003
4734.102934	234.937469	265.757446	1179.584961
4734.105831	225.878448	259.912903	1189.929810
4734.109159	215.650497	254.769730	1197.703003
4734.112490	206.007019	247.990067	1208.047852
4734.115832	196.421982	241.853317	1214.535278
4734.119185	186.720047	235.891891	1223.418945
4734.122494	177.427231	228.878433	1230.490845
4734.125403	167.725311	223.150803	1237.913452
4734.128737	157.848053	216.546463	1245.628296
4734.132071	147.737000	210.234375	1253.459961
4734.135398	137.216827	203.688477	1259.187622
4734.138737	127.339569	197.668625	1265.791870
4734.142110	117.345413	190.772049	1270.818237
4734.145409	107.760376	183.992416	1276.136719
4734.148760	98.233780	177.563431	1281.221436
4734.152063	88.473412	170.959091	1286.189331
4734.155399	78.888367	164.588547	1291.975342
4734.158731	68.601990	157.925766	1294.722290
4734.162069	58.958508	150.386337	1299.923950
4734.165402	48.789017	143.898895	1305.184082
4734.168738	38.911751	137.060791	1308.398560
4734.172068	28.040915	130.748688	1310.911743
4734.175399	18.455877	123.910583	1315.119751
4734.178759	8.111050	116.546463	1316.054932
4734.182062	-1.707771	109.533020	1319.152466
4734.185396	-11.643482	102.110458	1321.139648
4734.188731	-21.637634	94.395676	1322.483887
4734.192076	-32.859146	87.616013	1325.055420
4734.195393	-43.379303	80.018127	1326.341309
4734.198730	-54.074806	72.595551	1328.503784
4734.202060	-65.004089	64.062531	1328.445312
4734.205393	-75.699593	56.464642	1329.672729
4734.208738	-86.745766	48.866741	1331.309082
4734.212066	-98.084167	40.801281	1332.127319
4734.215394	-109.539444	32.209820	1329.964844
4734.218733	-120.001160	24.261250	1328.796021
4734.222057	-131.924026	15.903564	1327.627075
4734.225389	-142.970200	7.779659	1324.529419
4734.228729	-154.600815	-0.461134	1322.893066
4734.232056	-165.880768	-8.760374	1324.354126
4734.236775	-188.499130	-26.469316	1317.165405
4734.239670	-199.077744	-34.300995	1315.762695
4734.242982	-209.539444	-42.191116	1310.911743
4734.246323	-219.299835	-49.613678	1306.411377
4734.249669	-229.527756	-57.445354	1302.261841
4734.252901	-239.697250	-65.452370	1298.229126
4734.256245	-248.990067	-73.108704	1292.910522
4734.259155	-259.218018	-79.888367	1288.118042
4734.262484	-267.984802	-87.544708	1282.448853
4734.265811	-277.160706	-94.791931	1277.071777
4734.269154	-286.044434	-101.279373	1270.642822
4734.272503	-294.460571	-108.059021	1264.447632
4734.275828	-302.759766	-114.663361	1260.648682
4734.278745	-310.123901	-120.917007	1254.921021
4734.282053	-318.540039	-126.352417	1248.199829
4734.285412	-326.196350	-132.781418	1241.829224
4734.288719	-333.677368	-138.567505	1234.231323
4734.292064	-339.872559	-144.528931	1227.977783
4734.295389	-346.827576	-150.022797	1221.022827
4734.298725	-353.139648	-155.925781	1214.126221
4734.302049	-360.328491	-160.952072	1207.931030
4734.305385	-366.289917	-166.621262	1200.625244
4734.308721	-372.368225	-171.004684	1195.365234
4734.312054	-378.446533	-176.381653	1187.124390
4734.315386	-384.466370	-181.641724	1179.058960
4734.318718	-390.427856	-185.849792	1171.694824
4734.322067	-396.798401	-191.343658	1163.278687
4734.325382	-402.701355	-195.610168	1155.154907
4734.328716	-407.493835	-200.110458	1145.336060
4734.332049	-412.286377	-205.662766	1138.322632
4734.335380	-418.014038	-210.455292	1129.438843
4734.338716	-423.332581	-214.371124	1121.899414
4734.342050	-428.709534	-219.105194	1112.489746
4734.345378	-433.209839	-224.014618	1102.495605
4734.348712	-438.879028	-228.631790	1093.553467
4734.352078	-443.437744	-232.722977	1084.845093
4734.355383	-449.165405	-236.814148	1074.500244
4734.358710	-453.665710	-240.437744	1064.097046
4734.362045	-458.516663	-244.412033	1054.628784
4734.365404	-462.900085	-248.853867	1045.453003
4734.368714	-466.289856	-252.243713	1036.802979
4734.372046	-470.731750	-256.627106	1025.639893
4734.375376	-473.361816	-259.841614	1016.756287
4734.378713	-476.517822	-262.647003	1006.060852
4734.382048	-481.076538	-265.393921	996.768005
4734.385380	-483.881958	-268.549988	986.364685
4734.390062	-488.732910	-273.868500	968.305115
4734.392916	-491.421387	-276.440094	958.194092
4734.396349	-494.051453	-278.836365	949.135071
4734.399666	-495.571045	-281.174164	940.601929
4734.402898	-498.434875	-283.219757	932.185852
4734.406232	-499.895996	-285.089996	922.542419
4734.409581	-501.883118	-286.843384	914.360107
4734.412462	-503.402710	-289.298065	906.879089
4734.415801	-504.396301	-290.525421	898.696655
4734.419139	-505.565186	-292.687897	890.163635
4734.422485	-506.149658	-293.681488	882.916504
4734.425834	-509.188782	-295.434845	875.435364
4734.429158	-508.896545	-296.545319	868.538879
4734.432042	-509.071899	-297.889557	859.772034
4734.435374	-511.643494	-298.824677	854.219788
4734.438741	-511.643494	-299.759796	845.628296
4734.442041	-512.227966	-300.987152	838.205750
4734.445369	-513.221558	-302.623627	832.185852
4734.448701	-512.929260	-303.500305	824.354187
4734.452057	-513.922852	-304.669220	816.580994
4734.455372	-514.273499	-305.370575	810.093506
4734.458705	-514.974854	-306.481018	803.021667
4734.462039	-514.799500	-307.474579	795.306824
4734.465373	-515.383972	-308.351257	788.994751
4734.468700	-515.325562	-308.877258	781.455322
4734.472042	-515.500916	-309.987732	774.558777
4734.475367	-515.909973	-310.922852	767.545288
4734.478704	-515.793091	-312.033325	760.473450
4734.482063	-515.851562	-312.033325	752.115723
4734.485371	-516.552917	-313.202240	746.095886
4734.488702	-516.669800	-313.494446	739.023987
4734.492034	-516.377563	-313.552887	732.244324
4734.495380	-516.026917	-314.429596	724.880188
4734.498739	-516.143799	-314.897156	717.048523
4734.502036	-515.442444	-315.189362	711.320862
4734.505371	-515.968445	-316.416718	704.658142
4734.508703	-516.202209	-315.949158	698.404419
4734.512028	-515.734680	-316.358276	692.092346
4734.515365	-515.208679	-316.942719	685.955627
4734.518703	-514.916443	-317.001190	678.883728
4734.522027	-514.156677	-316.825836	673.857361
4734.525358	-514.507324	-317.410309	668.012878
4734.528693	-513.981323	-317.877869	662.168335
4734.532024	-513.279968	-317.877869	657.492737
4734.535358	-512.286377	-317.410309	651.472839
4734.540058	-511.585083	-317.527191	642.822937
4734.542989	-510.299255	-317.702515	638.147278
4734.546284	-510.123901	-317.410309	634.523682
4734.549577	-509.597900	-317.234955	631.075439
4734.552885	-509.013428	-317.410309	626.049133
4734.556207	-509.188782	-318.170074	623.652832
4734.559569	-507.961426	-317.176514	620.029236
4734.562457	-506.617187	-316.650513	616.230286
4734.565787	-506.266541	-317.644073	614.184692
4734.569173	-505.974304	-317.702515	610.268860
4734.572485	-505.623596	-316.825836	607.931030
4734.575807	-505.039185	-317.176514	604.307434
4734.579121	-503.227356	-317.234955	602.261841
4734.582037	-503.636475	-317.234955	598.404419
4734.585363	-502.876709	-317.351868	596.709534
4734.588688	-502.409180	-317.118073	594.547058
4734.592023	-501.824707	-317.410309	590.806580
4734.595353	-501.357117	-317.468750	588.760986
4734.598693	-501.824707	-317.176514	585.137329
4734.602028	-501.181763	-317.410309	581.747498
4734.605353	-500.655762	-316.592072	579.935730
4734.608693	-499.545288	-316.708954	576.545898
4734.612048	-498.785522	-316.942719	573.448303
4734.615354	-498.843994	-316.884308	570.876709
4734.618690	-499.019287	-317.410309	568.012878
4734.622017	-497.382812	-317.059631	566.025696
4734.625358	-497.967285	-316.475159	563.570984
4734.628689	-496.330811	-316.533630	560.765625
4734.632021	-497.207458	-316.884308	558.603149
4734.635351	-496.739929	-317.118073	555.388672
4734.638684	-495.804810	-317.001190	552.817078
4734.642019	-495.045044	-316.825836	551.297485
4734.645353	-495.278809	-316.650513	548.433655
4734.648686	-494.752747	-315.773834	546.095886
4734.652020	-493.876099	-315.598511	545.745239
4734.655376	-493.233215	-316.182953	543.348938
4734.658684	-492.356506	-315.949158	541.887817
4734.662017	-492.298096	-316.124512	540.777344
4734.665344	-492.414978	-316.241394	540.134399
4734.668692	-492.590332	-317.001190	539.725342
4734.672016	-492.765625	-315.540039	538.907104
4734.675347	-491.596741	-316.767395	538.322632
4734.678680	-492.298096	-317.059631	538.381104
4734.682012	-491.479858	-316.533630	538.088806
4734.685347	-492.648743	-316.416718	537.621277
4734.688677	-491.129211	-316.475159	538.205750
4734.692037	-491.187622	-317.176514	539.082397
4734.696696	-491.129211	-316.708954	539.433105
4734.699578	-492.298096	-316.825836	540.835815
4734.702861	-491.246033	-316.767395	541.011108
4734.706190	-490.778503	-317.468750	542.238464
4734.709551	-492.005859	-317.702515	543.699585
4734.712888	-491.772034	-317.702515	544.926941
4734.716280	-491.830505	-317.176514	546.095886
4734.719126	-493.350098	-317.936310	547.440063
4734.722463	-491.772034	-317.994751	548.199890
4734.725772	-491.830505	-318.170074	548.959656
4734.729128	-491.830505	-318.345428	550.654602
4734.732437	-492.181213	-318.637634	551.940369
4734.735811	-493.057861	-318.988312	552.524841
4734.739101	-492.648743	-319.514343	553.518433
4734.742014	-492.356506	-320.274139	553.401550
